#!/bin/bash
gmt gmtset PS_MEDIA letter
gmt gmtset PROJ_LENGTH_UNIT cm
gmt gmtset PS_PAGE_ORIENTATION portrait
psfile=mangyshlak4.1_tt1_summary.ps
projection=-JX12/16
region=-R0/180/0/1500
gmt psbasemap $region $projection -Bxa30f10+l'Epicentral Distance (deg)' -Bya200f100+l'Travel Time (s)' -BWeSn+t'Summary Travel Times mangyshlak4.1' -K > $psfile
gmt psxy -: -R $projection -Wthick,red -K -O << END >> $psfile
   325.387    25.000
   329.931    25.500
   334.464    26.000
   338.986    26.500
   343.496    27.000
   347.989    27.500
   352.463    28.000
   356.921    28.500
   361.367    29.000
   365.804    29.500
   370.233    30.000
   374.655    30.500
   379.069    31.000
   383.475    31.500
   387.873    32.000
   392.262    32.500
   396.640    33.000
   401.005    33.500
   405.357    34.000
   409.694    34.500
   414.016    35.000
   418.323    35.500
   422.614    36.000
   426.891    36.500
   431.152    37.000
   435.397    37.500
   439.627    38.000
   443.840    38.500
   448.037    39.000
   452.216    39.500
   456.379    40.000
   460.525    40.500
   464.654    41.000
   468.765    41.500
   472.860    42.000
   476.937    42.500
   480.997    43.000
   485.040    43.500
   489.064    44.000
   493.071    44.500
   497.060    45.000
   501.031    45.500
   504.984    46.000
   508.920    46.500
   512.837    47.000
   516.735    47.500
   520.616    48.000
   524.479    48.500
   528.323    49.000
   532.150    49.500
   535.958    50.000
   539.747    50.500
   543.519    51.000
   547.272    51.500
   551.007    52.000
   554.724    52.500
   558.423    53.000
   562.105    53.500
   565.768    54.000
   569.413    54.500
   573.040    55.000
   576.648    55.500
   580.238    56.000
   583.809    56.500
   587.362    57.000
   590.896    57.500
   594.413    58.000
   597.912    58.500
   601.392    59.000
   604.854    59.500
   608.298    60.000
   611.723    60.500
   615.130    61.000
   618.518    61.500
   621.888    62.000
   625.240    62.500
   628.574    63.000
   631.891    63.500
   635.189    64.000
   638.469    64.500
   641.732    65.000
   644.977    65.500
   648.203    66.000
   651.412    66.500
   654.602    67.000
   657.774    67.500
   660.928    68.000
   664.064    68.500
   667.182    69.000
   670.281    69.500
   673.363    70.000
   676.426    70.500
   679.471    71.000
   682.498    71.500
   685.507    72.000
   688.498    72.500
   691.470    73.000
   694.424    73.500
   697.358    74.000
   700.275    74.500
   703.172    75.000
   706.051    75.500
   708.912    76.000
   711.754    76.500
   714.578    77.000
   717.384    77.500
   720.173    78.000
   722.942    78.500
   725.694    79.000
   728.428    79.500
   731.142    80.000
   733.838    80.500
   736.514    81.000
   739.172    81.500
   741.809    82.000
   744.429    82.500
   747.029    83.000
   749.611    83.500
   752.173    84.000
   754.715    84.500
   757.236    85.000
   759.737    85.500
   762.220    86.000
   764.685    86.500
   767.132    87.000
   769.557    87.500
   771.947    88.000
   774.314    88.500
   776.669    89.000
   779.015    89.500
   781.353    90.000
   783.685    90.500
   786.010    91.000
   788.329    91.500
   790.644    92.000
   792.955    92.500
   795.263    93.000
   797.567    93.500
   799.867    94.000
   802.163    94.500
   804.453    95.000
   806.738    95.500
   809.016    96.000
   811.288    96.500
   813.554    97.000
   815.813    97.500
   818.064    98.000
   820.309    98.500
   822.546    99.000
   824.775    99.500
END
gmt psxy -: -R $projection -Wthick,red -K -O << END >> $psfile
  1123.829   115.500
  1124.791   116.000
  1125.753   116.500
  1126.715   117.000
  1127.677   117.500
  1128.639   118.000
  1129.601   118.500
  1130.563   119.000
  1131.524   119.500
  1132.485   120.000
  1133.446   120.500
  1134.407   121.000
  1135.368   121.500
  1136.328   122.000
  1137.288   122.500
  1138.248   123.000
  1139.207   123.500
  1140.165   124.000
  1141.124   124.500
  1142.081   125.000
  1143.038   125.500
  1143.995   126.000
  1144.951   126.500
  1145.906   127.000
  1146.860   127.500
  1147.814   128.000
  1148.767   128.500
  1149.719   129.000
  1150.670   129.500
  1151.620   130.000
  1152.568   130.500
  1153.516   131.000
  1154.462   131.500
  1155.407   132.000
  1156.351   132.500
  1157.293   133.000
  1158.234   133.500
  1159.173   134.000
  1160.110   134.500
  1161.045   135.000
  1161.979   135.500
  1162.910   136.000
  1163.839   136.500
  1164.765   137.000
  1165.689   137.500
  1166.610   138.000
  1167.529   138.500
  1168.445   139.000
  1169.358   139.500
  1170.267   140.000
  1171.173   140.500
  1172.076   141.000
  1172.975   141.500
  1173.870   142.000
  1174.760   142.500
  1175.646   143.000
  1176.527   143.500
  1177.404   144.000
  1178.275   144.500
  1179.141   145.000
  1180.001   145.500
  1180.855   146.000
  1181.702   146.500
  1182.544   147.000
  1183.378   147.500
  1184.205   148.000
  1185.025   148.500
  1185.836   149.000
  1186.639   149.500
  1187.432   150.000
  1188.216   150.500
  1188.990   151.000
  1189.753   151.500
  1190.507   152.000
  1191.250   152.500
  1191.984   153.000
  1192.707   153.500
  1193.420   154.000
  1194.121   154.500
  1194.812   155.000
  1195.491   155.500
  1196.158   156.000
  1196.814   156.500
  1197.458   157.000
  1198.089   157.500
  1198.709   158.000
  1199.316   158.500
  1199.910   159.000
  1200.491   159.500
  1201.060   160.000
  1201.616   160.500
  1202.158   161.000
  1202.688   161.500
  1203.204   162.000
  1203.707   162.500
  1204.197   163.000
  1204.673   163.500
  1205.135   164.000
  1205.584   164.500
  1206.018   165.000
  1206.439   165.500
  1206.846   166.000
  1207.240   166.500
  1207.619   167.000
  1207.984   167.500
  1208.335   168.000
  1208.672   168.500
  1208.995   169.000
  1209.304   169.500
  1209.599   170.000
  1209.879   170.500
  1210.145   171.000
  1210.397   171.500
  1210.635   172.000
  1210.858   172.500
  1211.067   173.000
  1211.262   173.500
  1211.442   174.000
  1211.608   174.500
  1211.759   175.000
  1211.896   175.500
  1212.019   176.000
  1212.127   176.500
  1212.221   177.000
  1212.301   177.500
  1212.366   178.000
  1212.416   178.500
  1212.452   179.000
  1212.474   179.500
  1212.481   180.000
END
gmt psxy -: -R $projection -Wthick,red -K -O << END >> $psfile
   994.780     0.500
   994.788     1.000
   994.802     1.500
   994.822     2.000
   994.847     2.500
   994.878     3.000
   994.914     3.500
   994.956     4.000
   995.004     4.500
   995.057     5.000
   995.116     5.500
   995.180     6.000
   995.250     6.500
   995.325     7.000
   995.406     7.500
   995.493     8.000
   995.585     8.500
   995.683     9.000
   995.786     9.500
   995.895    10.000
   996.009    10.500
   996.129    11.000
   996.255    11.500
   996.386    12.000
   996.523    12.500
   996.665    13.000
   996.812    13.500
   996.966    14.000
   997.124    14.500
   997.289    15.000
   997.458    15.500
   997.634    16.000
   997.814    16.500
   998.001    17.000
   998.192    17.500
   998.390    18.000
   998.592    18.500
   998.800    19.000
   999.014    19.500
   999.233    20.000
   999.458    20.500
   999.687    21.000
   999.923    21.500
  1000.164    22.000
  1000.410    22.500
  1000.661    23.000
  1000.918    23.500
  1001.181    24.000
  1001.448    24.500
  1001.721    25.000
  1002.000    25.500
  1002.284    26.000
  1002.573    26.500
  1002.867    27.000
  1003.167    27.500
  1003.472    28.000
  1003.782    28.500
  1004.098    29.000
  1004.419    29.500
  1004.745    30.000
  1005.077    30.500
  1005.413    31.000
  1005.755    31.500
  1006.102    32.000
  1006.455    32.500
  1006.812    33.000
  1007.175    33.500
  1007.543    34.000
  1007.916    34.500
  1008.294    35.000
  1008.678    35.500
  1009.066    36.000
  1009.460    36.500
  1009.858    37.000
  1010.262    37.500
  1010.671    38.000
  1011.085    38.500
  1011.504    39.000
  1011.927    39.500
  1012.357    40.000
  1012.790    40.500
  1013.229    41.000
  1013.673    41.500
  1014.122    42.000
  1014.576    42.500
  1015.035    43.000
  1015.498    43.500
  1015.967    44.000
  1016.440    44.500
  1016.918    45.000
  1017.402    45.500
  1017.890    46.000
  1018.382    46.500
  1018.880    47.000
  1019.382    47.500
  1019.889    48.000
  1020.401    48.500
  1020.918    49.000
  1021.439    49.500
  1021.965    50.000
  1022.496    50.500
  1023.031    51.000
  1023.571    51.500
  1024.116    52.000
  1024.665    52.500
  1025.219    53.000
  1025.778    53.500
  1026.341    54.000
  1026.908    54.500
  1027.480    55.000
  1028.057    55.500
  1028.638    56.000
  1029.224    56.500
  1029.814    57.000
  1030.408    57.500
  1031.007    58.000
  1031.610    58.500
  1032.218    59.000
  1032.830    59.500
  1033.446    60.000
  1034.067    60.500
  1034.692    61.000
  1035.321    61.500
  1035.955    62.000
  1036.593    62.500
  1037.234    63.000
  1037.881    63.500
  1038.531    64.000
  1039.186    64.500
  1039.844    65.000
  1040.507    65.500
  1041.174    66.000
  1041.845    66.500
  1042.520    67.000
  1043.199    67.500
  1043.882    68.000
  1044.569    68.500
  1045.260    69.000
  1045.955    69.500
  1046.654    70.000
  1047.357    70.500
  1048.064    71.000
  1048.775    71.500
  1049.489    72.000
  1050.208    72.500
  1050.930    73.000
  1051.656    73.500
  1052.385    74.000
  1053.119    74.500
  1053.856    75.000
  1054.597    75.500
  1055.341    76.000
  1056.090    76.500
  1056.842    77.000
  1057.597    77.500
  1058.356    78.000
  1059.119    78.500
  1059.885    79.000
  1060.655    79.500
  1061.428    80.000
  1062.204    80.500
  1062.985    81.000
  1063.768    81.500
  1064.555    82.000
  1065.345    82.500
  1066.139    83.000
  1066.936    83.500
  1067.737    84.000
  1068.540    84.500
  1069.347    85.000
  1070.157    85.500
  1070.971    86.000
  1071.788    86.500
  1072.607    87.000
  1073.430    87.500
  1074.256    88.000
  1075.086    88.500
  1075.918    89.000
  1076.753    89.500
  1077.592    90.000
  1078.433    90.500
  1079.278    91.000
  1080.125    91.500
  1080.976    92.000
  1081.829    92.500
  1082.685    93.000
  1083.544    93.500
  1084.406    94.000
  1085.271    94.500
  1086.138    95.000
  1087.009    95.500
  1087.882    96.000
  1088.758    96.500
  1089.636    97.000
  1090.517    97.500
  1091.401    98.000
  1092.288    98.500
  1093.177    99.000
  1094.069    99.500
  1094.963   100.000
  1095.860   100.500
  1096.759   101.000
  1097.661   101.500
  1098.565   102.000
  1099.472   102.500
  1100.381   103.000
  1101.293   103.500
  1102.207   104.000
  1103.123   104.500
  1104.042   105.000
  1104.963   105.500
  1105.886   106.000
  1106.812   106.500
  1107.740   107.000
  1108.670   107.500
  1109.602   108.000
  1110.536   108.500
  1111.472   109.000
  1112.411   109.500
  1113.352   110.000
  1114.294   110.500
  1115.239   111.000
  1116.186   111.500
  1117.134   112.000
  1118.085   112.500
  1119.038   113.000
  1119.992   113.500
  1120.949   114.000
  1121.907   114.500
  1122.867   115.000
  1123.829   115.500
  1124.793   116.000
  1125.759   116.500
  1126.726   117.000
  1127.695   117.500
  1128.666   118.000
  1129.638   118.500
  1130.612   119.000
  1131.588   119.500
  1132.565   120.000
  1133.544   120.500
  1134.524   121.000
  1135.506   121.500
  1136.490   122.000
  1137.475   122.500
  1138.461   123.000
  1139.449   123.500
  1140.438   124.000
  1141.429   124.500
  1142.421   125.000
  1143.415   125.500
  1144.409   126.000
  1145.405   126.500
  1146.403   127.000
  1147.401   127.500
  1148.401   128.000
  1149.402   128.500
  1150.404   129.000
  1151.407   129.500
  1152.412   130.000
  1153.417   130.500
  1154.424   131.000
  1155.432   131.500
  1156.441   132.000
  1157.450   132.500
  1158.461   133.000
  1159.473   133.500
  1160.485   134.000
  1161.499   134.500
  1162.514   135.000
  1163.529   135.500
  1164.545   136.000
  1165.562   136.500
  1166.580   137.000
  1167.599   137.500
  1168.618   138.000
  1169.639   138.500
  1170.660   139.000
  1171.681   139.500
  1172.703   140.000
  1173.726   140.500
  1174.750   141.000
  1175.774   141.500
  1176.799   142.000
  1177.824   142.500
  1178.850   143.000
  1179.877   143.500
  1180.904   144.000
  1181.931   144.500
  1182.959   145.000
  1183.987   145.500
  1185.016   146.000
  1186.045   146.500
  1187.074   147.000
  1188.104   147.500
  1189.135   148.000
  1190.165   148.500
  1191.196   149.000
  1192.227   149.500
  1193.258   150.000
  1194.290   150.500
  1195.321   151.000
  1196.353   151.500
  1197.385   152.000
  1198.417   152.500
  1199.450   153.000
  1200.482   153.500
  1201.515   154.000
  1202.547   154.500
  1203.580   155.000
  1204.612   155.500
END
gmt psxy -: -R $projection -Wthick,red -K -O << END >> $psfile
  1178.429   145.000
  1180.248   145.500
  1182.127   146.000
  1184.043   146.500
  1185.987   147.000
  1187.954   147.500
  1189.942   148.000
  1191.947   148.500
  1193.967   149.000
  1196.002   149.500
  1198.049   150.000
  1200.108   150.500
  1202.178   151.000
  1204.257   151.500
  1206.345   152.000
  1208.442   152.500
  1210.546   153.000
  1212.658   153.500
  1214.777   154.000
  1216.902   154.500
  1219.034   155.000
  1221.171   155.500
  1223.313   156.000
  1225.461   156.500
  1227.613   157.000
  1229.770   157.500
  1231.931   158.000
  1234.096   158.500
  1236.265   159.000
  1238.438   159.500
  1240.614   160.000
  1242.793   160.500
  1244.976   161.000
  1247.161   161.500
  1249.349   162.000
  1251.540   162.500
  1253.733   163.000
  1255.928   163.500
  1258.126   164.000
  1260.325   164.500
  1262.527   165.000
  1264.730   165.500
  1266.935   166.000
  1269.142   166.500
  1271.350   167.000
  1273.559   167.500
  1275.770   168.000
  1277.982   168.500
  1280.196   169.000
  1282.410   169.500
  1284.625   170.000
  1286.842   170.500
  1289.059   171.000
  1291.277   171.500
  1293.496   172.000
  1295.715   172.500
  1297.935   173.000
  1300.156   173.500
  1302.376   174.000
  1304.598   174.500
  1306.820   175.000
  1309.042   175.500
  1311.264   176.000
  1313.486   176.500
  1315.709   177.000
  1317.932   177.500
  1320.155   178.000
END
gmt psxy -: -R $projection -Wthick,red -K -O << END >> $psfile
  1178.428   145.000
  1180.058   145.500
  1181.608   146.000
  1183.099   146.500
  1184.540   147.000
  1185.935   147.500
  1187.288   148.000
  1188.601   148.500
  1189.880   149.000
  1191.129   149.500
  1192.353   150.000
  1193.554   150.500
  1194.734   151.000
  1195.895   151.500
  1197.038   152.000
  1198.163   152.500
  1199.272   153.000
  1200.367   153.500
  1201.448   154.000
  1202.517   154.500
  1203.572   155.000
  1204.612   155.500
END
gmt psxy -: -R $projection -Wthick,red -K -O << END >> $psfile
   511.655     0.500
   511.691     1.000
   511.751     1.500
   511.835     2.000
   511.943     2.500
   512.075     3.000
   512.231     3.500
   512.411     4.000
   512.614     4.500
   512.842     5.000
   513.093     5.500
   513.368     6.000
   513.666     6.500
   513.989     7.000
   514.334     7.500
   514.704     8.000
   515.096     8.500
   515.512     9.000
   515.951     9.500
   516.414    10.000
   516.899    10.500
   517.408    11.000
   517.939    11.500
   518.494    12.000
   519.071    12.500
   519.670    13.000
   520.292    13.500
   520.937    14.000
   521.603    14.500
   522.292    15.000
   523.003    15.500
   523.736    16.000
   524.490    16.500
   525.266    17.000
   526.064    17.500
   526.883    18.000
   527.723    18.500
   528.584    19.000
   529.466    19.500
   530.369    20.000
   531.292    20.500
   532.236    21.000
   533.201    21.500
   534.185    22.000
   535.189    22.500
   536.214    23.000
   537.257    23.500
   538.321    24.000
   539.403    24.500
   540.505    25.000
   541.626    25.500
   542.765    26.000
   543.923    26.500
   545.100    27.000
   546.295    27.500
   547.508    28.000
   548.739    28.500
   549.987    29.000
   551.253    29.500
   552.537    30.000
   553.837    30.500
   555.155    31.000
   556.489    31.500
   557.840    32.000
   559.208    32.500
   560.592    33.000
   561.992    33.500
   563.407    34.000
   564.839    34.500
   566.286    35.000
   567.748    35.500
   569.225    36.000
   570.718    36.500
   572.225    37.000
   573.746    37.500
   575.283    38.000
   576.833    38.500
   578.397    39.000
   579.975    39.500
   581.567    40.000
   583.172    40.500
   584.791    41.000
   586.422    41.500
   588.067    42.000
   589.724    42.500
   591.394    43.000
   593.076    43.500
   594.771    44.000
   596.477    44.500
   598.196    45.000
   599.926    45.500
   601.667    46.000
   603.420    46.500
   605.184    47.000
   606.959    47.500
   608.744    48.000
   610.541    48.500
   612.347    49.000
   614.165    49.500
   615.992    50.000
   617.829    50.500
   619.676    51.000
   621.532    51.500
   623.399    52.000
   625.274    52.500
   627.158    53.000
   629.052    53.500
   630.954    54.000
   632.865    54.500
   634.785    55.000
   636.713    55.500
   638.649    56.000
   640.593    56.500
   642.545    57.000
   644.505    57.500
   646.473    58.000
   648.448    58.500
   650.430    59.000
   652.420    59.500
   654.416    60.000
   656.420    60.500
   658.430    61.000
   660.447    61.500
   662.470    62.000
   664.500    62.500
   666.536    63.000
   668.578    63.500
   670.626    64.000
   672.680    64.500
   674.740    65.000
   676.805    65.500
   678.876    66.000
   680.952    66.500
   683.033    67.000
   685.119    67.500
   687.211    68.000
   689.307    68.500
   691.408    69.000
   693.513    69.500
   695.624    70.000
   697.738    70.500
   699.857    71.000
   701.980    71.500
   704.107    72.000
   706.238    72.500
   708.373    73.000
   710.512    73.500
   712.654    74.000
   714.800    74.500
   716.949    75.000
   719.102    75.500
   721.258    76.000
   723.417    76.500
   725.579    77.000
   727.745    77.500
   729.913    78.000
   732.084    78.500
   734.257    79.000
   736.434    79.500
   738.612    80.000
   740.794    80.500
   742.977    81.000
   745.163    81.500
   747.351    82.000
   749.541    82.500
   751.734    83.000
   753.928    83.500
   756.124    84.000
   758.322    84.500
   760.521    85.000
   762.723    85.500
   764.926    86.000
   767.130    86.500
   769.336    87.000
   771.543    87.500
   773.752    88.000
   775.962    88.500
   778.173    89.000
   780.385    89.500
   782.598    90.000
   784.812    90.500
   787.028    91.000
   789.244    91.500
   791.460    92.000
   793.678    92.500
   795.896    93.000
   798.115    93.500
   800.335    94.000
   802.555    94.500
   804.776    95.000
   806.997    95.500
   809.218    96.000
   811.440    96.500
   813.662    97.000
   815.884    97.500
   818.107    98.000
   820.330    98.500
   822.552    99.000
   824.775    99.500
END
gmt psxy -: -R $projection -Wthick,red -K -O << END >> $psfile
   421.107    28.500
   426.664    29.000
   432.221    29.500
   437.777    30.000
   443.333    30.500
   448.886    31.000
   454.439    31.500
   459.989    32.000
   465.536    32.500
   471.081    33.000
   476.623    33.500
   482.161    34.000
   487.695    34.500
   493.224    35.000
   498.749    35.500
   504.267    36.000
   509.780    36.500
   515.287    37.000
   520.786    37.500
   526.278    38.000
   531.761    38.500
   537.236    39.000
   542.701    39.500
   548.156    40.000
   553.601    40.500
   559.035    41.000
   564.457    41.500
   569.867    42.000
   575.264    42.500
   580.648    43.000
   586.018    43.500
   591.374    44.000
   596.715    44.500
   602.040    45.000
   607.350    45.500
   612.644    46.000
   617.921    46.500
   623.182    47.000
   628.005    47.500
   632.577    48.000
   637.143    48.500
   641.705    49.000
   646.262    49.500
   650.814    50.000
   655.361    50.500
   659.903    51.000
   664.439    51.500
   668.969    52.000
   673.494    52.500
   678.013    53.000
   682.526    53.500
   687.032    54.000
   691.530    54.500
   696.019    55.000
   700.498    55.500
   704.967    56.000
   709.428    56.500
   713.882    57.000
   718.331    57.500
   722.775    58.000
   727.214    58.500
   731.649    59.000
   736.080    59.500
   740.507    60.000
   744.931    60.500
   749.350    61.000
   753.766    61.500
   758.178    62.000
   762.586    62.500
   766.990    63.000
   771.391    63.500
   775.786    64.000
   780.178    64.500
   784.564    65.000
   788.945    65.500
   793.320    66.000
   797.689    66.500
   802.052    67.000
   806.407    67.500
   810.755    68.000
   815.096    68.500
   819.429    69.000
   823.755    69.500
   828.073    70.000
   832.384    70.500
   836.687    71.000
   840.982    71.500
   845.270    72.000
   849.550    72.500
   853.823    73.000
   858.088    73.500
   862.345    74.000
   866.594    74.500
   870.835    75.000
   875.069    75.500
   879.294    76.000
   883.512    76.500
   887.721    77.000
   891.922    77.500
   896.114    78.000
   900.299    78.500
   904.474    79.000
   908.641    79.500
   912.800    80.000
   916.950    80.500
   921.091    81.000
   925.224    81.500
   929.349    82.000
   933.465    82.500
   937.572    83.000
   941.671    83.500
   945.761    84.000
   949.843    84.500
   953.916    85.000
   957.981    85.500
   962.036    86.000
   966.083    86.500
   970.121    87.000
   974.150    87.500
   978.170    88.000
   982.182    88.500
   986.184    89.000
   990.178    89.500
   994.162    90.000
   998.138    90.500
  1002.105    91.000
  1006.062    91.500
  1010.011    92.000
  1013.950    92.500
  1017.881    93.000
  1021.803    93.500
  1025.715    94.000
  1029.619    94.500
  1033.513    95.000
  1037.398    95.500
  1041.275    96.000
  1045.142    96.500
  1049.000    97.000
  1052.849    97.500
  1056.689    98.000
  1060.520    98.500
  1064.342    99.000
  1068.154    99.500
  1071.958   100.000
  1075.752   100.500
  1079.537   101.000
  1083.313   101.500
  1087.080   102.000
  1090.837   102.500
  1094.586   103.000
  1098.325   103.500
  1102.056   104.000
  1105.777   104.500
  1109.490   105.000
  1113.194   105.500
  1116.889   106.000
  1120.575   106.500
  1124.252   107.000
  1127.920   107.500
  1131.579   108.000
  1135.229   108.500
  1138.869   109.000
  1142.501   109.500
  1146.123   110.000
  1149.735   110.500
  1153.339   111.000
  1156.933   111.500
  1160.518   112.000
  1164.094   112.500
  1167.661   113.000
  1171.218   113.500
  1174.766   114.000
  1178.306   114.500
  1181.836   115.000
  1185.357   115.500
  1188.869   116.000
  1192.372   116.500
  1195.866   117.000
  1199.351   117.500
  1202.827   118.000
  1206.293   118.500
  1209.751   119.000
  1213.199   119.500
  1216.638   120.000
  1220.068   120.500
  1223.489   121.000
  1226.900   121.500
  1230.302   122.000
  1233.695   122.500
  1237.079   123.000
  1240.454   123.500
  1243.820   124.000
  1247.176   124.500
  1250.524   125.000
  1253.862   125.500
  1257.192   126.000
  1260.513   126.500
  1263.824   127.000
  1267.127   127.500
  1270.421   128.000
  1273.706   128.500
  1276.982   129.000
  1280.249   129.500
  1283.507   130.000
  1286.756   130.500
  1289.996   131.000
  1293.228   131.500
  1296.449   132.000
  1299.662   132.500
  1302.866   133.000
  1306.061   133.500
  1309.247   134.000
  1312.424   134.500
  1315.592   135.000
  1318.750   135.500
  1321.900   136.000
  1325.040   136.500
  1328.172   137.000
  1331.294   137.500
  1334.407   138.000
  1337.511   138.500
  1340.606   139.000
  1343.692   139.500
  1346.769   140.000
  1349.837   140.500
  1352.896   141.000
  1355.945   141.500
  1358.986   142.000
  1362.017   142.500
  1365.040   143.000
  1368.053   143.500
  1371.057   144.000
  1374.053   144.500
  1377.039   145.000
  1380.016   145.500
  1382.983   146.000
  1385.942   146.500
  1388.891   147.000
  1391.830   147.500
  1394.761   148.000
  1397.682   148.500
  1400.593   149.000
  1403.495   149.500
  1406.388   150.000
END
gmt psxy -: -R $projection -Wthick,red -K -O << END >> $psfile
   826.998   100.000
   829.221   100.500
   831.444   101.000
   833.666   101.500
   835.889   102.000
   838.112   102.500
   840.335   103.000
   842.558   103.500
   844.781   104.000
   847.003   104.500
   849.226   105.000
   851.449   105.500
   853.672   106.000
   855.895   106.500
   858.118   107.000
   860.341   107.500
   862.563   108.000
   864.786   108.500
   867.009   109.000
   869.232   109.500
   871.455   110.000
   873.677   110.500
   875.900   111.000
   878.123   111.500
   880.346   112.000
   882.569   112.500
   884.792   113.000
   887.015   113.500
   889.237   114.000
   891.460   114.500
   893.683   115.000
   895.906   115.500
   898.129   116.000
   900.352   116.500
   902.574   117.000
   904.797   117.500
   907.020   118.000
   909.243   118.500
   911.466   119.000
   913.689   119.500
   915.911   120.000
   918.134   120.500
   920.357   121.000
   922.580   121.500
   924.803   122.000
   927.026   122.500
   929.248   123.000
   931.471   123.500
   933.694   124.000
   935.917   124.500
   938.140   125.000
   940.363   125.500
   942.585   126.000
   944.808   126.500
   947.031   127.000
   949.254   127.500
   951.477   128.000
   953.700   128.500
   955.922   129.000
   958.145   129.500
   960.368   130.000
   962.591   130.500
   964.814   131.000
   967.036   131.500
   969.259   132.000
   971.482   132.500
   973.705   133.000
   975.928   133.500
   978.151   134.000
   980.374   134.500
   982.596   135.000
   984.819   135.500
   987.042   136.000
   989.265   136.500
   991.488   137.000
   993.711   137.500
   995.933   138.000
   998.156   138.500
  1000.379   139.000
  1002.602   139.500
  1004.825   140.000
  1007.048   140.500
  1009.270   141.000
  1011.493   141.500
  1013.716   142.000
  1015.939   142.500
  1018.162   143.000
  1020.385   143.500
  1022.607   144.000
  1024.830   144.500
END
gmt psxy -: -R $projection -Wthick,green -K -O << END >> $psfile
   387.895    14.500
   398.134    15.000
   408.369    15.500
   418.598    16.000
   428.818    16.500
   439.024    17.000
   449.212    17.500
   459.378    18.000
   469.516    18.500
   479.622    19.000
   489.689    19.500
   499.712    20.000
   509.683    20.500
   519.598    21.000
   529.451    21.500
   539.236    22.000
   548.950    22.500
   557.816    23.000
   565.963    23.500
   574.076    24.000
   582.156    24.500
   590.195    25.000
   598.158    25.500
   606.071    26.000
   613.972    26.500
   621.864    27.000
   629.749    27.500
   637.627    28.000
   645.498    28.500
   653.363    29.000
   661.221    29.500
   669.071    30.000
   676.914    30.500
   684.747    31.000
   692.569    31.500
   700.379    32.000
   708.174    32.500
   715.954    33.000
   723.718    33.500
   731.463    34.000
   739.191    34.500
   746.899    35.000
   754.588    35.500
   762.257    36.000
   769.906    36.500
   777.535    37.000
   785.144    37.500
   792.731    38.000
   800.297    38.500
   807.840    39.000
   815.361    39.500
   822.860    40.000
   830.335    40.500
   837.787    41.000
   845.215    41.500
   852.620    42.000
   860.000    42.500
   867.356    43.000
   874.687    43.500
   881.994    44.000
   889.275    44.500
   896.532    45.000
   903.763    45.500
   910.969    46.000
   918.149    46.500
   925.303    47.000
   932.430    47.500
   939.531    48.000
   946.605    48.500
   953.652    49.000
   960.672    49.500
   967.665    50.000
   974.631    50.500
   981.569    51.000
   988.481    51.500
   995.364    52.000
  1002.220    52.500
  1009.049    53.000
  1015.851    53.500
  1022.628    54.000
  1029.378    54.500
  1036.102    55.000
  1042.798    55.500
  1049.468    56.000
  1056.109    56.500
  1062.723    57.000
  1069.308    57.500
  1075.865    58.000
  1082.394    58.500
  1088.896    59.000
  1095.370    59.500
  1101.816    60.000
  1108.235    60.500
  1114.626    61.000
  1120.988    61.500
  1127.323    62.000
  1133.629    62.500
  1139.906    63.000
  1146.155    63.500
  1152.376    64.000
  1158.568    64.500
  1164.732    65.000
  1170.868    65.500
  1176.975    66.000
  1183.055    66.500
  1189.105    67.000
  1195.128    67.500
  1201.122    68.000
  1207.087    68.500
  1213.023    69.000
  1218.931    69.500
  1224.810    70.000
  1230.661    70.500
  1236.482    71.000
  1242.275    71.500
  1248.038    72.000
  1253.772    72.500
  1259.477    73.000
  1265.151    73.500
  1270.796    74.000
  1276.410    74.500
  1281.994    75.000
  1287.549    75.500
  1293.075    76.000
  1298.572    76.500
  1304.039    77.000
  1309.476    77.500
  1314.882    78.000
  1320.258    78.500
  1325.604    79.000
  1330.921    79.500
  1336.208    80.000
  1341.466    80.500
  1346.694    81.000
  1351.891    81.500
  1357.056    82.000
  1362.188    82.500
  1367.289    83.000
  1372.359    83.500
  1377.397    84.000
  1382.405    84.500
  1387.381    85.000
  1392.326    85.500
  1397.239    86.000
  1402.120    86.500
  1406.969    87.000
  1411.786    87.500
  1416.570    88.000
  1421.320    88.500
  1426.037    89.000
  1430.721    89.500
  1435.371    90.000
  1439.987    90.500
  1444.569    91.000
  1449.118    91.500
  1453.633    92.000
  1458.114    92.500
  1462.561    93.000
  1466.973    93.500
  1471.359    94.000
  1475.728    94.500
  1480.084    95.000
  1484.428    95.500
  1488.760    96.000
  1493.079    96.500
  1497.382    97.000
  1501.666    97.500
  1505.928    98.000
  1510.172    98.500
  1514.396    99.000
  1518.599    99.500
  1522.782   100.000
END
gmt psxy -: -R $projection -Wthick,green -K -O << END >> $psfile
   723.675     0.500
   723.722     1.000
   723.800     1.500
   723.909     2.000
   724.049     2.500
   724.220     3.000
   724.422     3.500
   724.655     4.000
   724.919     4.500
   725.213     5.000
   725.539     5.500
   725.895     6.000
   726.281     6.500
   726.699     7.000
   727.146     7.500
   727.624     8.000
   728.132     8.500
   728.670     9.000
   729.238     9.500
   729.836    10.000
   730.463    10.500
   731.120    11.000
   731.806    11.500
   732.521    12.000
   733.266    12.500
   734.039    13.000
   734.841    13.500
   735.671    14.000
   736.529    14.500
   737.416    15.000
   738.330    15.500
   739.272    16.000
   740.242    16.500
   741.238    17.000
   742.262    17.500
   743.312    18.000
   744.389    18.500
   745.492    19.000
   746.621    19.500
   747.776    20.000
   748.957    20.500
   750.162    21.000
   751.393    21.500
   752.648    22.000
   753.928    22.500
   755.232    23.000
   756.560    23.500
   757.911    24.000
   759.285    24.500
   760.683    25.000
   762.104    25.500
   763.546    26.000
   765.011    26.500
   766.498    27.000
   768.006    27.500
   769.536    28.000
   771.086    28.500
   772.657    29.000
   774.248    29.500
   775.859    30.000
   777.490    30.500
   779.140    31.000
   780.809    31.500
   782.497    32.000
   784.203    32.500
   785.927    33.000
   787.669    33.500
   789.428    34.000
   791.204    34.500
   792.997    35.000
   794.806    35.500
   796.631    36.000
   798.472    36.500
   800.328    37.000
   802.199    37.500
   804.085    38.000
   805.985    38.500
   807.899    39.000
   809.827    39.500
   811.768    40.000
   813.722    40.500
   815.689    41.000
   817.668    41.500
   819.659    42.000
   821.662    42.500
   823.676    43.000
   825.701    43.500
   827.737    44.000
   829.783    44.500
   831.839    45.000
   833.905    45.500
   835.981    46.000
   838.065    46.500
   840.158    47.000
   842.259    47.500
   844.369    48.000
   846.486    48.500
   848.611    49.000
   850.743    49.500
   852.881    50.000
   855.027    50.500
   857.178    51.000
   859.336    51.500
   861.499    52.000
   863.667    52.500
   865.841    53.000
   868.019    53.500
   870.202    54.000
   872.390    54.500
   874.581    55.000
   876.776    55.500
   878.974    56.000
   881.176    56.500
   883.380    57.000
   885.588    57.500
   887.797    58.000
   890.009    58.500
   892.223    59.000
   894.439    59.500
   896.657    60.000
   898.875    60.500
   901.095    61.000
   903.316    61.500
   905.538    62.000
   907.760    62.500
   909.983    63.000
   912.205    63.500
END
gmt psxy -: -R $projection -Wthick,green -K -O << END >> $psfile
   935.730     0.500
   935.796     1.000
   935.907     1.500
   936.062     2.000
   936.261     2.500
   936.504     3.000
   936.791     3.500
   937.123     4.000
   937.498     4.500
   937.918     5.000
   938.381     5.500
   938.888     6.000
   939.438     6.500
   940.033     7.000
   940.670     7.500
   941.351     8.000
   942.076     8.500
   942.843     9.000
   943.653     9.500
   944.506    10.000
   945.402    10.500
   946.340    11.000
   947.320    11.500
   948.342    12.000
   949.407    12.500
   950.513    13.000
   951.661    13.500
   952.849    14.000
   954.079    14.500
   955.350    15.000
   956.662    15.500
   958.014    16.000
   959.406    16.500
   960.838    17.000
   962.310    17.500
   963.822    18.000
   965.372    18.500
   966.962    19.000
   968.590    19.500
   970.257    20.000
   971.961    20.500
   973.704    21.000
   975.484    21.500
   977.301    22.000
   979.156    22.500
   981.047    23.000
   982.974    23.500
   984.938    24.000
   986.937    24.500
   988.972    25.000
   991.042    25.500
   993.147    26.000
   995.286    26.500
   997.460    27.000
   999.667    27.500
  1001.908    28.000
  1004.182    28.500
  1006.490    29.000
  1008.829    29.500
  1011.202    30.000
  1013.606    30.500
  1016.041    31.000
  1018.508    31.500
  1021.006    32.000
  1023.534    32.500
  1026.093    33.000
  1028.681    33.500
  1031.299    34.000
  1033.947    34.500
  1036.623    35.000
  1039.328    35.500
  1042.061    36.000
  1044.822    36.500
  1047.610    37.000
  1050.426    37.500
  1053.269    38.000
  1056.138    38.500
  1059.034    39.000
  1061.955    39.500
  1064.902    40.000
  1067.874    40.500
  1070.871    41.000
  1073.893    41.500
  1076.939    42.000
  1080.008    42.500
  1083.102    43.000
  1086.218    43.500
  1089.358    44.000
  1092.520    44.500
  1095.704    45.000
  1098.911    45.500
  1102.139    46.000
  1105.388    46.500
  1108.658    47.000
  1111.949    47.500
  1115.261    48.000
  1118.593    48.500
  1121.944    49.000
  1125.315    49.500
  1128.705    50.000
  1132.114    50.500
  1135.542    51.000
  1138.988    51.500
  1142.451    52.000
  1145.933    52.500
  1149.432    53.000
  1152.948    53.500
  1156.481    54.000
  1160.031    54.500
  1163.596    55.000
  1167.178    55.500
  1170.776    56.000
  1174.389    56.500
  1178.017    57.000
  1181.660    57.500
  1185.318    58.000
  1188.990    58.500
  1192.676    59.000
  1196.377    59.500
  1200.090    60.000
  1203.818    60.500
  1207.558    61.000
  1211.311    61.500
  1215.077    62.000
  1218.855    62.500
  1222.645    63.000
  1226.447    63.500
  1230.261    64.000
  1234.086    64.500
  1237.922    65.000
  1241.770    65.500
  1245.628    66.000
  1249.496    66.500
  1253.375    67.000
  1257.264    67.500
  1261.163    68.000
  1265.071    68.500
  1268.989    69.000
  1272.916    69.500
  1276.851    70.000
  1280.796    70.500
  1284.749    71.000
  1288.711    71.500
  1292.681    72.000
  1296.658    72.500
  1300.644    73.000
  1304.637    73.500
  1308.637    74.000
  1312.645    74.500
  1316.659    75.000
  1320.681    75.500
  1324.709    76.000
  1328.744    76.500
  1332.784    77.000
  1336.831    77.500
  1340.884    78.000
  1344.943    78.500
  1349.007    79.000
  1353.077    79.500
  1357.151    80.000
  1361.231    80.500
  1365.316    81.000
  1369.406    81.500
  1373.500    82.000
  1377.599    82.500
  1381.702    83.000
  1385.809    83.500
  1389.920    84.000
  1394.035    84.500
  1398.154    85.000
  1402.276    85.500
  1406.402    86.000
  1410.531    86.500
  1414.663    87.000
  1418.798    87.500
  1422.936    88.000
  1427.077    88.500
  1431.220    89.000
  1435.366    89.500
  1439.514    90.000
  1443.664    90.500
  1447.816    91.000
  1451.970    91.500
  1456.127    92.000
  1460.285    92.500
  1464.444    93.000
  1468.605    93.500
  1472.767    94.000
  1476.931    94.500
  1481.095    95.000
  1485.261    95.500
  1489.428    96.000
  1493.595    96.500
  1497.763    97.000
  1501.932    97.500
  1506.102    98.000
  1510.271    98.500
  1514.441    99.000
  1518.611    99.500
  1522.782   100.000
END
gmt psxy -: -R $projection -Wthick,green -K -O << END >> $psfile
   775.849    29.000
   786.088    29.500
   796.327    30.000
   806.564    30.500
   816.798    31.000
   827.029    31.500
   837.256    32.000
   847.478    32.500
   857.695    33.000
   867.905    33.500
   878.107    34.000
   888.300    34.500
   898.483    35.000
   908.655    35.500
   918.815    36.000
   928.961    36.500
   939.092    37.000
   949.207    37.500
   959.304    38.000
   968.773    38.500
   979.439    39.000
   989.473    39.500
   999.484    40.000
  1009.469    40.500
  1019.427    41.000
  1029.357    41.500
  1039.257    42.000
  1049.126    42.500
  1058.963    43.000
  1068.766    43.500
  1078.534    44.000
  1088.266    44.500
  1097.961    45.000
  1107.527    45.500
  1115.699    46.000
  1123.854    46.500
  1131.992    47.000
  1140.113    47.500
  1148.218    48.000
  1156.307    48.500
  1164.379    49.000
  1172.430    49.500
  1180.456    50.000
  1188.447    50.500
  1196.382    51.000
  1204.299    51.500
  1212.209    52.000
  1220.113    52.500
  1228.011    53.000
  1235.906    53.500
  1243.796    54.000
  1251.682    54.500
  1259.565    55.000
  1267.445    55.500
  1275.321    56.000
  1283.194    56.500
  1291.063    57.000
  1298.929    57.500
  1306.792    58.000
  1314.652    58.500
  1322.508    59.000
  1330.361    59.500
  1338.210    60.000
  1346.055    60.500
  1353.895    61.000
  1361.731    61.500
  1369.562    62.000
  1377.387    62.500
  1385.206    63.000
  1393.018    63.500
  1400.824    64.000
  1408.624    64.500
  1416.416    65.000
  1424.200    65.500
  1431.976    66.000
  1439.744    66.500
  1447.503    67.000
  1455.253    67.500
  1462.994    68.000
  1470.727    68.500
  1478.449    69.000
  1486.162    69.500
  1493.866    70.000
END
gmt psxy -: -R $projection -Sx -Wthin,cyan -K -O << END >> $psfile
   177.088     5.376     0.150
   121.488     8.461     0.150
   370.488    11.794     0.150
   252.588    18.461     0.150
   289.188    21.389     0.150
   538.088    21.759     0.150
   385.588    31.573     0.150
   399.188    33.145     0.150
   432.588    36.902     0.150
   111.988     8.206     0.150
   172.088     8.394     0.150
   271.088    19.778     0.150
   273.088    19.946     0.150
   280.088    20.554     0.150
   289.088    21.186     0.150
   313.088    23.287     0.150
   325.088    23.287     0.150
   323.088    24.158     0.150
   330.088    24.158     0.150
   409.088    24.158     0.150
   324.088    24.413     0.150
   345.088    24.413     0.150
   326.088    24.550     0.150
   532.088    24.550     0.150
   600.088    24.550     0.150
   335.088    25.404     0.150
   611.088    25.404     0.150
   391.088    26.335     0.150
   370.088    26.851     0.150
   355.088    27.931     0.150
   667.088    27.931     0.150
   369.088    28.822     0.150
   383.088    28.822     0.150
   417.088    28.822     0.150
   377.088    29.529     0.150
   393.088    29.529     0.150
   409.088    30.211     0.150
   446.088    30.211     0.150
   454.088    30.211     0.150
   412.088    31.562     0.150
   417.088    31.562     0.150
   435.088    31.562     0.150
   389.088    32.141     0.150
   434.088    32.507     0.150
   437.088    33.607     0.150
   457.088    34.257     0.150
   449.588    38.208     0.150
   424.287    43.190     0.150
   652.088    45.788     0.150
   921.088    45.788     0.150
  1296.088    45.788     0.150
   516.088    46.653     0.150
   525.088    46.653     0.150
   519.088    46.961     0.150
   530.088    46.961     0.150
   546.088    46.961     0.150
   539.088    48.708     0.150
   560.088    48.708     0.150
   789.088    86.727     0.150
   792.088    87.646     0.150
   793.088    88.280     0.150
  2314.088    88.280     0.150
  3266.088    88.280     0.150
   725.287    91.226     0.150
   803.088    93.083     0.150
   792.088    93.361     0.150
   810.787    94.398     0.150
   974.088    99.727     0.150
  1137.088   113.421     0.150
   202.689     6.533     0.150
   262.689     8.540     0.150
   185.189    10.042     0.150
   198.189    10.915     0.150
   248.590    13.735     0.150
   231.389    46.285     0.150
   287.789    21.354     0.150
   539.189    21.728     0.150
   345.689    27.244     0.150
   375.689    30.683     0.150
   385.389    31.544     0.150
   488.990    44.086     0.150
   581.189    46.285     0.150
   168.189     8.429     0.150
   289.189     8.429     0.150
   692.189    18.505     0.150
   265.189    19.773     0.150
   273.189    19.943     0.150
   498.189    20.554     0.150
   499.189    20.554     0.150
   538.189    21.242     0.150
   307.189    22.862     0.150
   317.189    24.147     0.150
   330.189    24.147     0.150
   340.189    24.147     0.150
   323.189    24.401     0.150
   336.189    24.401     0.150
   381.189    24.401     0.150
   483.189    24.401     0.150
   595.189    24.401     0.150
   578.189    24.519     0.150
   327.189    24.519     0.150
   317.189    24.478     0.150
   554.189    24.478     0.150
   554.189    24.478     0.150
   663.189    24.478     0.150
   838.189    24.478     0.150
   341.189    25.547     0.150
   377.189    25.547     0.150
   707.189    25.547     0.150
   345.189    26.326     0.150
   363.189    26.326     0.150
   684.189    26.326     0.150
   393.189    26.814     0.150
   428.189    26.814     0.150
   692.189    26.814     0.150
  1080.189    26.814     0.150
   354.189    27.391     0.150
   374.189    27.894     0.150
   405.189    28.808     0.150
   435.189    28.808     0.150
   515.189    28.808     0.150
   564.189    28.808     0.150
   714.189    28.808     0.150
  1080.189    28.808     0.150
   405.189    29.304     0.150
   387.189    29.490     0.150
   393.189    29.716     0.150
   658.189    29.902     0.150
   658.189    29.926     0.150
   435.189    30.202     0.150
   446.189    30.202     0.150
   689.189    30.295     0.150
   670.189    30.686     0.150
   429.189    31.351     0.150
   416.189    31.525     0.150
   442.189    31.772     0.150
   459.189    31.772     0.150
   439.189    31.861     0.150
   394.189    32.209     0.150
   405.189    32.447     0.150
   423.189    32.447     0.150
   780.189    32.447     0.150
   882.189    32.447     0.150
   434.189    32.493     0.150
   986.189    32.493     0.150
  1040.189    32.493     0.150
   668.189    32.747     0.150
   419.189    33.159     0.150
   407.189    33.726     0.150
   423.189    33.820     0.150
  4003.189    33.935     0.150
  4016.189    33.935     0.150
   471.189    34.243     0.150
   668.189    34.243     0.150
   697.189    34.243     0.150
   850.189    34.243     0.150
   907.189    34.243     0.150
   411.189    34.283     0.150
   709.189    34.283     0.150
   928.189    34.283     0.150
   449.689    38.187     0.150
   484.189    43.186     0.150
   507.189    43.186     0.150
   724.189    43.186     0.150
   585.189    44.166     0.150
   592.189    44.541     0.150
  1302.189    45.781     0.150
   529.189    46.963     0.150
   910.189    46.963     0.150
   539.189    48.709     0.150
   715.189    48.709     0.150
   716.189    48.709     0.150
   725.189    48.709     0.150
   740.189    48.709     0.150
   617.189    55.618     0.150
   825.189    62.904     0.150
   716.889    67.461     0.150
   653.189    68.020     0.150
   920.189    87.357     0.150
  2314.189    88.239     0.150
  3360.189    88.239     0.150
   835.990    89.765     0.150
   839.189    89.765     0.150
   818.189    93.050     0.150
   818.189    96.176     0.150
  1039.189    96.370     0.150
   931.189    99.687     0.150
  1831.189    99.687     0.150
  1400.189   127.232     0.150
  1148.189   133.713     0.150
  1147.189   135.108     0.150
  1193.189   135.108     0.150
  1148.189   135.658     0.150
   179.883     6.482     0.150
   214.883     6.482     0.150
   126.783     7.150     0.150
   251.283     9.967     0.150
   217.283    15.654     0.150
   223.283    16.218     0.150
   224.283    16.309     0.150
   229.783    46.307     0.150
   525.283    21.079     0.150
   287.482    21.313     0.150
   344.783    27.193     0.150
   376.283    30.675     0.150
   400.883    33.465     0.150
   443.482    38.538     0.150
   488.383    44.074     0.150
   581.283    46.307     0.150
   117.783     8.268     0.150
   168.283     8.377     0.150
   289.283     8.377     0.150
   294.283    17.850     0.150
   498.283    19.648     0.150
   532.283    21.289     0.150
   287.283    21.810     0.150
   627.283    23.368     0.150
   573.283    23.433     0.150
   370.283    24.094     0.150
   465.283    24.094     0.150
   540.283    24.094     0.150
   840.283    24.094     0.150
   972.283    24.094     0.150
   592.283    24.194     0.150
   323.283    24.475     0.150
   343.283    24.475     0.150
   356.283    24.475     0.150
   382.283    24.475     0.150
   327.283    24.580     0.150
   555.283    24.553     0.150
   625.283    24.553     0.150
   675.283    24.553     0.150
   729.283    24.553     0.150
   756.283    24.553     0.150
   794.283    24.553     0.150
   902.283    24.553     0.150
   315.283    24.770     0.150
   354.283    24.770     0.150
   375.283    24.770     0.150
   962.283    24.770     0.150
   338.283    25.422     0.150
   340.283    25.511     0.150
   351.283    26.401     0.150
   378.283    26.401     0.150
   365.283    26.889     0.150
   393.283    26.889     0.150
   609.283    26.889     0.150
   609.283    26.917     0.150
   347.283    27.466     0.150
   385.283    27.466     0.150
   548.283    28.430     0.150
   384.283    28.881     0.150
   403.283    28.881     0.150
   443.283    28.881     0.150
   470.283    28.881     0.150
   776.283    28.881     0.150
   810.283    28.881     0.150
   978.283    28.881     0.150
  1067.283    28.881     0.150
  1104.283    28.881     0.150
  1158.283    28.881     0.150
   385.283    29.373     0.150
   376.283    29.534     0.150
   395.283    29.790     0.150
   396.283    29.790     0.150
   402.283    29.790     0.150
   430.283    29.790     0.150
   430.283    29.790     0.150
   468.283    29.790     0.150
   388.283    30.276     0.150
   410.283    30.276     0.150
   444.283    30.276     0.150
   453.283    30.276     0.150
   541.283    30.276     0.150
   560.283    30.276     0.150
   630.283    30.761     0.150
   391.283    31.573     0.150
   417.283    31.573     0.150
   392.283    32.522     0.150
   402.283    32.522     0.150
   452.283    32.567     0.150
  1400.283    32.567     0.150
   393.184    32.714     0.150
   538.283    32.835     0.150
   400.383    33.895     0.150
   419.283    33.895     0.150
   459.283    33.895     0.150
   420.283    33.955     0.150
   404.283    34.011     0.150
   408.283    34.011     0.150
  1028.283    34.317     0.150
  1140.283    34.317     0.150
   412.283    34.357     0.150
   407.283    34.724     0.150
   408.283    34.724     0.150
   500.283    38.109     0.150
   472.684    41.422     0.150
   590.283    44.201     0.150
   591.283    44.247     0.150
   593.283    44.465     0.150
   597.283    45.113     0.150
   531.283    47.038     0.150
   643.283    47.038     0.150
   615.283    48.784     0.150
  1890.283    61.490     0.150
   755.283    62.912     0.150
   616.783    62.867     0.150
   665.783    69.313     0.150
  2314.283    88.276     0.150
  2324.283    88.276     0.150
  3284.283    88.276     0.150
   813.283    96.225     0.150
   825.783    99.727     0.150
  1019.283   101.201     0.150
  1002.283   102.455     0.150
  1088.283   102.455     0.150
  1819.283   102.455     0.150
  1160.283   124.959     0.150
  1170.283   126.859     0.150
  1253.283   126.859     0.150
  1149.283   133.691     0.150
  1146.283   135.582     0.150
  1151.283   136.161     0.150
  1169.283   136.161     0.150
  1157.283   136.724     0.150
  1171.383   143.686     0.150
END
gmt psxy -: -R $projection -Sx -Wthin,black -K -O << END >> $psfile
    76.088     4.960     0.150
    81.088     5.376     0.150
    85.287     5.581     0.150
    96.389     6.497     0.150
   100.088     6.778     0.150
   185.088     6.778     0.150
   102.787     7.067     0.150
   111.688     7.678     0.150
   141.688     7.678     0.150
   199.688     7.678     0.150
   112.088     7.678     0.150
   118.088     8.054     0.150
   118.488     8.214     0.150
   218.488     8.214     0.150
   121.488     8.461     0.150
   124.588     8.515     0.150
   272.588     8.515     0.150
   131.488     9.046     0.150
   240.088     9.046     0.150
   141.088    10.035     0.150
   155.588    10.991     0.150
   274.088    10.991     0.150
   167.488    11.794     0.150
   177.088    12.461     0.150
   178.588    12.628     0.150
   321.188    12.628     0.150
   180.088    12.813     0.150
   181.188    12.806     0.150
   184.287    13.092     0.150
   188.088    13.498     0.150
   338.088    13.498     0.150
   192.688    13.773     0.150
   197.088    13.904     0.150
   199.889    14.212     0.150
   203.088    14.473     0.150
   460.088    14.473     0.150
   203.889    14.623     0.150
   368.889    14.623     0.150
   205.088    14.815     0.150
   207.889    14.811     0.150
   208.088    14.811     0.150
   219.188    15.435     0.150
   223.088    16.188     0.150
   223.088    16.274     0.150
   224.088    16.274     0.150
   408.588    16.274     0.150
   515.088    16.274     0.150
   226.688    16.282     0.150
   227.088    16.075     0.150
   231.188    15.610     0.150
   237.889    17.083     0.150
   240.588    17.276     0.150
   466.088    18.461     0.150
   276.889    20.434     0.150
   284.088    21.013     0.150
   676.088    21.013     0.150
   289.088    21.593     0.150
   289.088    21.389     0.150
   531.088    21.389     0.150
   290.088    21.759     0.150
   290.889    21.759     0.150
   291.088    21.762     0.150
   539.088    21.762     0.150
   294.488    22.050     0.150
   301.389    22.678     0.150
   302.889    22.861     0.150
   559.088    22.861     0.150
   311.088    23.597     0.150
   575.287    23.597     0.150
   336.088    26.345     0.150
   346.088    27.274     0.150
   375.889    30.727     0.150
   378.588    30.798     0.150
   385.488    31.573     0.150
   393.088    32.439     0.150
   399.088    33.145     0.150
   411.287    34.754     0.150
   425.488    36.338     0.150
   427.588    36.605     0.150
   431.088    36.853     0.150
   433.889    37.261     0.150
   435.088    37.142     0.150
   444.188    38.613     0.150
   444.389    38.613     0.150
   463.488    40.712     0.150
   475.488    42.454     0.150
   489.088    44.129     0.150
   501.088    45.750     0.150
   544.088    51.071     0.150
   564.088    53.956     0.150
   575.088    55.233     0.150
   582.088    56.248     0.150
   599.088    58.631     0.150
   630.088    63.543     0.150
   122.088     8.394     0.150
   122.588     8.511     0.150
   126.287     8.624     0.150
   163.088    11.166     0.150
   203.287    14.313     0.150
   202.787    14.437     0.150
   220.287    15.666     0.150
   225.488    16.139     0.150
   234.188    16.728     0.150
   245.088    17.615     0.150
   250.088    17.768     0.150
   464.088    17.768     0.150
   253.688    18.258     0.150
   263.588    19.158     0.150
   271.389    19.567     0.150
   270.588    19.702     0.150
   270.088    19.778     0.150
   271.088    19.946     0.150
   279.088    20.554     0.150
   286.088    21.122     0.150
   288.088    21.186     0.150
   288.088    21.210     0.150
   291.088    21.726     0.150
   292.088    21.774     0.150
   308.588    23.287     0.150
   311.088    23.489     0.150
   316.488    24.158     0.150
   319.988    24.400     0.150
   318.988    24.413     0.150
   353.088    24.413     0.150
   318.889    24.550     0.150
   583.088    24.550     0.150
   326.488    25.404     0.150
   598.088    25.404     0.150
   337.088    26.335     0.150
   379.088    26.335     0.150
   341.688    26.851     0.150
   381.088    26.851     0.150
   345.389    27.492     0.150
   350.688    27.895     0.150
   350.889    27.931     0.150
   543.088    27.931     0.150
   349.889    27.973     0.150
   355.588    28.361     0.150
   356.988    28.582     0.150
   358.588    28.822     0.150
   359.787    28.947     0.150
   363.088    29.325     0.150
   413.088    29.325     0.150
   364.889    29.529     0.150
   551.088    29.529     0.150
   367.287    29.729     0.150
   370.088    29.918     0.150
   371.088    30.061     0.150
   369.287    30.070     0.150
   371.088    30.211     0.150
   432.088    30.211     0.150
   555.088    30.211     0.150
   672.088    30.211     0.150
   376.287    30.686     0.150
   382.088    31.493     0.150
   382.488    31.562     0.150
   387.088    31.969     0.150
   388.088    32.141     0.150
   391.287    32.458     0.150
   392.287    32.507     0.150
   393.787    32.758     0.150
   397.488    33.134     0.150
   399.088    33.310     0.150
   400.988    33.607     0.150
   402.287    33.733     0.150
   407.088    34.257     0.150
   414.287    35.173     0.150
   414.988    35.297     0.150
   422.088    35.865     0.150
   434.088    37.288     0.150
   434.088    37.352     0.150
   787.088    37.352     0.150
   434.688    37.574     0.150
   436.287    37.772     0.150
   438.988    38.107     0.150
   447.588    38.854     0.150
   483.787    43.422     0.150
   489.688    44.207     0.150
   591.088    44.207     0.150
   492.088    44.534     0.150
   494.088    44.864     0.150
   497.889    45.096     0.150
   597.088    45.096     0.150
   503.488    45.788     0.150
   601.088    45.788     0.150
   610.088    45.788     0.150
   834.088    45.788     0.150
   906.088    45.788     0.150
   914.088    45.788     0.150
  1103.088    45.788     0.150
   508.488    46.653     0.150
   601.088    46.653     0.150
   511.889    46.961     0.150
   606.088    46.961     0.150
   519.889    47.733     0.150
   524.588    48.708     0.150
   536.287    50.134     0.150
   538.688    50.598     0.150
   547.688    51.468     0.150
   576.389    55.655     0.150
   601.889    59.013     0.150
   607.787    60.017     0.150
   608.588    60.107     0.150
   608.389    60.117     0.150
   615.488    61.055     0.150
   618.088    61.415     0.150
   618.088    61.573     0.150
   624.688    62.537     0.150
   627.088    62.809     0.150
   626.188    62.819     0.150
   627.287    62.949     0.150
   627.188    63.015     0.150
   631.889    63.637     0.150
   632.889    63.855     0.150
   632.588    63.772     0.150
   638.088    64.661     0.150
   660.088    67.976     0.150
   660.088    68.063     0.150
   659.088    67.981     0.150
   668.889    69.244     0.150
   669.588    69.369     0.150
   670.389    69.735     0.150
   671.287    69.882     0.150
   673.588    70.050     0.150
   673.287    70.110     0.150
   674.088    70.144     0.150
   675.088    70.386     0.150
   686.588    72.291     0.150
   688.588    72.505     0.150
   690.988    73.130     0.150
   691.889    73.152     0.150
   693.787    73.446     0.150
   692.088    73.339     0.150
   693.787    73.658     0.150
   701.088    74.592     0.150
   699.787    74.534     0.150
   709.088    76.224     0.150
   709.389    76.226     0.150
   716.889    77.475     0.150
   728.787    79.810     0.150
   735.088    80.851     0.150
   736.588    81.026     0.150
   741.488    81.901     0.150
   741.889    82.046     0.150
   745.088    82.756     0.150
   745.389    82.826     0.150
   757.287    85.313     0.150
   764.988    86.727     0.150
   766.088    87.074     0.150
   769.488    87.389     0.150
   769.688    87.606     0.150
   769.088    87.646     0.150
   771.588    87.981     0.150
   773.389    88.280     0.150
  1834.088    88.280     0.150
   779.088    89.484     0.150
   779.488    89.722     0.150
   786.188    91.389     0.150
   788.787    91.885     0.150
   789.889    91.992     0.150
   791.787    92.323     0.150
   794.688    93.083     0.150
   803.588    95.018     0.150
   804.287    95.542     0.150
   807.688    95.579     0.150
   806.988    96.039     0.150
   808.787    96.110     0.150
   809.088    96.213     0.150
   808.588    96.362     0.150
   812.088    96.615     0.150
   817.088    98.149     0.150
   819.889    98.455     0.150
   821.287    98.595     0.150
   823.287    99.109     0.150
   825.088    99.358     0.150
   825.588    99.727     0.150
   828.889   100.264     0.150
   833.088   101.207     0.150
   840.889   103.054     0.150
  1114.088   111.308     0.150
  1142.088   124.883     0.150
  1142.287   124.972     0.150
  1146.988   127.234     0.150
  1144.088   127.546     0.150
  1160.088   135.102     0.150
  1164.088   137.070     0.150
  1172.588   143.661     0.150
  1181.088   145.458     0.150
  1184.889   146.693     0.150
  1184.088   146.695     0.150
  1184.787   146.737     0.150
    76.189     5.000     0.150
    78.189     5.114     0.150
    81.189     5.390     0.150
    86.189     5.613     0.150
   110.189     5.613     0.150
    97.189     6.533     0.150
   164.189     6.533     0.150
    98.189     6.590     0.150
   103.490     7.093     0.150
   182.490     7.093     0.150
   112.189     7.708     0.150
   195.990     7.708     0.150
   112.189     7.696     0.150
   204.189     7.696     0.150
   234.189     7.696     0.150
   118.189     8.070     0.150
   118.889     8.235     0.150
   121.090     8.466     0.150
   154.590     8.466     0.150
   123.689     8.540     0.150
   125.289     8.578     0.150
   227.889     8.578     0.150
   131.590     9.062     0.150
   140.189    10.042     0.150
   257.189    10.042     0.150
   155.189    10.989     0.150
   337.189    10.989     0.150
   156.189    10.915     0.150
   167.189    11.802     0.150
   380.189    11.802     0.150
   176.689    12.461     0.150
   178.889    12.633     0.150
   179.689    12.822     0.150
   181.189    12.803     0.150
   184.789    13.091     0.150
   187.389    13.454     0.150
   339.189    13.454     0.150
   424.689    13.454     0.150
   188.189    13.375     0.150
   344.189    13.375     0.150
   192.189    13.735     0.150
   353.990    13.735     0.150
   442.689    13.735     0.150
   194.189    13.904     0.150
   203.990    14.624     0.150
   362.189    14.624     0.150
   218.889    15.437     0.150
   219.090    15.725     0.150
   220.189    15.791     0.150
   490.189    15.791     0.150
   222.689    16.157     0.150
   223.189    16.246     0.150
   408.189    16.246     0.150
   514.189    16.246     0.150
   223.990    16.063     0.150
   226.490    16.270     0.150
   238.990    17.071     0.150
   252.789    18.455     0.150
   277.789    20.425     0.150
   503.789    20.425     0.150
   284.189    21.004     0.150
   287.789    21.354     0.150
   530.689    21.354     0.150
   290.189    21.728     0.150
   291.689    21.728     0.150
   530.189    21.728     0.150
   539.189    21.728     0.150
   291.189    21.584     0.150
   291.490    21.750     0.150
   295.689    22.041     0.150
   300.689    22.645     0.150
   300.990    22.645     0.150
   301.889    22.852     0.150
   732.189    22.852     0.150
   311.889    23.569     0.150
   335.189    26.306     0.150
   345.689    27.244     0.150
   375.689    30.683     0.150
   378.590    30.767     0.150
   385.389    31.544     0.150
   393.590    32.409     0.150
   398.189    33.116     0.150
   398.590    33.116     0.150
   401.789    33.515     0.150
   402.189    33.515     0.150
   411.590    34.723     0.150
   431.189    36.858     0.150
   433.789    37.227     0.150
   444.189    38.577     0.150
   444.389    38.577     0.150
   445.990    38.638     0.150
   449.189    39.000     0.150
   450.590    39.198     0.150
   454.990    39.650     0.150
   462.990    40.677     0.150
   465.189    40.988     0.150
   476.189    42.420     0.150
   488.189    44.086     0.150
   488.689    44.086     0.150
   488.990    44.086     0.150
   544.189    51.039     0.150
   563.689    53.928     0.150
   574.289    55.191     0.150
   617.189    61.528     0.150
   630.189    63.504     0.150
   118.090     8.248     0.150
   122.990     8.429     0.150
   124.590     8.555     0.150
   126.789     8.658     0.150
   158.689    10.832     0.150
   203.189    14.456     0.150
   204.090    14.358     0.150
   372.189    14.358     0.150
   220.689    15.676     0.150
   233.990    16.757     0.150
   238.689    16.952     0.150
   249.189    17.797     0.150
   459.189    17.797     0.150
   256.189    18.505     0.150
   259.189    18.505     0.150
   270.189    18.505     0.150
   263.289    19.166     0.150
   264.889    19.218     0.150
   262.189    19.313     0.150
   274.189    19.639     0.150
   270.189    19.597     0.150
   272.189    19.943     0.150
   522.189    19.943     0.150
   281.189    20.554     0.150
   518.189    20.554     0.150
   285.689    21.137     0.150
   287.189    21.183     0.150
   288.189    21.242     0.150
   290.189    21.313     0.150
   289.990    21.539     0.150
   291.490    21.743     0.150
   291.990    21.784     0.150
   309.189    23.316     0.150
   311.189    23.506     0.150
   573.189    23.506     0.150
   309.490    23.436     0.150
   310.189    23.552     0.150
   315.789    24.019     0.150
   315.990    24.147     0.150
   316.189    24.123     0.150
   318.789    24.401     0.150
   318.889    24.403     0.150
   318.789    24.519     0.150
   583.189    24.519     0.150
   625.189    24.478     0.150
   327.189    25.369     0.150
   599.189    25.369     0.150
   331.590    25.547     0.150
   329.789    25.554     0.150
   330.189    25.712     0.150
   334.689    26.326     0.150
   336.090    26.299     0.150
   337.090    26.591     0.150
   341.389    26.814     0.150
   385.189    26.814     0.150
   341.389    26.842     0.150
   346.189    27.391     0.150
   345.189    27.465     0.150
   350.090    27.894     0.150
   350.990    27.883     0.150
   355.189    28.355     0.150
   414.189    28.355     0.150
   547.189    28.355     0.150
   356.889    28.571     0.150
   358.389    28.808     0.150
   359.889    28.942     0.150
   362.990    29.304     0.150
   365.189    29.436     0.150
   364.789    29.490     0.150
   366.990    29.716     0.150
   369.990    29.947     0.150
   368.889    29.902     0.150
   368.889    30.034     0.150
   367.590    29.926     0.150
   371.090    30.049     0.150
   371.189    30.202     0.150
   554.189    30.202     0.150
   371.189    30.295     0.150
   375.789    30.686     0.150
   380.189    31.351     0.150
   448.189    31.351     0.150
   381.889    31.525     0.150
   382.189    31.482     0.150
   384.789    31.697     0.150
   387.689    31.772     0.150
   702.189    31.772     0.150
   385.189    31.861     0.150
   387.789    31.957     0.150
   388.389    32.129     0.150
   391.189    32.447     0.150
   391.389    32.493     0.150
   466.189    32.493     0.150
   393.389    32.747     0.150
   397.590    33.159     0.150
   560.189    33.159     0.150
   397.490    33.225     0.150
   399.590    33.484     0.150
   401.189    33.612     0.150
   401.389    33.726     0.150
   472.189    33.726     0.150
   561.189    33.726     0.150
   402.090    33.820     0.150
   475.189    33.820     0.150
   403.889    33.880     0.150
   476.189    33.880     0.150
   403.289    33.935     0.150
   406.889    34.243     0.150
   406.689    34.302     0.150
   407.590    34.361     0.150
   409.389    34.562     0.150
   409.990    34.628     0.150
   414.889    35.277     0.150
   414.889    35.287     0.150
   417.490    35.571     0.150
   422.189    35.893     0.150
   427.289    36.633     0.150
   430.689    37.098     0.150
   433.189    37.332     0.150
   514.189    37.332     0.150
   437.189    37.444     0.150
   434.490    37.562     0.150
   435.189    37.666     0.150
   436.090    37.759     0.150
   437.590    37.793     0.150
   439.389    38.015     0.150
   438.789    38.094     0.150
   439.590    38.159     0.150
   452.590    39.636     0.150
   467.189    41.347     0.150
   479.990    42.982     0.150
   481.590    43.186     0.150
   483.389    43.422     0.150
   588.189    43.422     0.150
   592.189    43.422     0.150
   489.689    44.166     0.150
   491.189    44.188     0.150
   591.189    44.188     0.150
   491.990    44.541     0.150
   497.789    45.061     0.150
   598.189    45.061     0.150
   500.189    45.459     0.150
   502.689    45.781     0.150
   908.189    45.781     0.150
  1106.189    45.781     0.150
   508.990    46.659     0.150
   512.189    46.963     0.150
   606.189    46.963     0.150
   615.189    46.963     0.150
   514.689    47.245     0.150
   517.689    47.932     0.150
   524.990    48.709     0.150
   535.689    50.092     0.150
   539.689    50.633     0.150
   547.990    51.509     0.150
   576.490    55.618     0.150
   601.189    58.991     0.150
   607.189    59.975     0.150
   608.389    60.073     0.150
   615.389    61.032     0.150
   616.689    61.320     0.150
   618.189    61.410     0.150
   617.590    61.547     0.150
   621.189    62.005     0.150
   623.789    62.511     0.150
   625.789    62.793     0.150
   627.590    62.904     0.150
   664.189    62.904     0.150
   627.189    62.941     0.150
   626.889    62.988     0.150
   627.689    62.865     0.150
   627.189    62.852     0.150
   631.389    63.611     0.150
   632.490    63.736     0.150
   633.689    63.876     0.150
   639.189    64.704     0.150
   658.189    67.937     0.150
   660.189    68.106     0.150
   669.689    69.385     0.150
   670.090    69.694     0.150
   670.789    69.593     0.150
   671.289    69.849     0.150
   673.490    70.065     0.150
   673.889    70.100     0.150
   681.389    71.303     0.150
   689.789    73.085     0.150
   692.289    73.303     0.150
   693.389    73.615     0.150
   693.990    73.489     0.150
   699.389    74.495     0.150
   701.389    74.633     0.150
   708.789    76.181     0.150
   709.590    76.196     0.150
   716.189    77.443     0.150
   725.590    79.047     0.150
   729.490    79.654     0.150
   728.289    79.769     0.150
   730.490    79.896     0.150
   735.189    80.819     0.150
   736.590    81.070     0.150
   738.889    81.459     0.150
   741.189    81.866     0.150
   741.189    82.002     0.150
   745.090    82.714     0.150
   745.189    82.789     0.150
   753.189    84.250     0.150
   757.090    85.271     0.150
   764.689    86.696     0.150
   766.189    87.030     0.150
   767.189    87.204     0.150
   768.990    87.357     0.150
   769.389    87.563     0.150
   768.590    87.603     0.150
   775.189    87.944     0.150
   771.289    87.938     0.150
   773.189    88.239     0.150
  1834.189    88.239     0.150
   779.090    89.440     0.150
   779.189    89.678     0.150
   779.289    89.672     0.150
   785.289    91.246     0.150
   786.090    91.346     0.150
   789.090    91.850     0.150
   791.389    92.291     0.150
   795.189    93.002     0.150
   793.889    93.050     0.150
   805.189    94.857     0.150
   803.090    94.869     0.150
   803.389    94.976     0.150
   805.889    95.505     0.150
   807.189    95.537     0.150
   807.889    95.667     0.150
   808.590    95.747     0.150
   808.789    96.067     0.150
   809.289    96.176     0.150
   809.189    96.370     0.150
   811.990    96.573     0.150
   813.490    96.818     0.150
   816.689    98.144     0.150
   819.789    98.411     0.150
  1808.189    98.411     0.150
   821.189    98.518     0.150
   820.689    98.551     0.150
   823.490    99.065     0.150
   824.289    99.322     0.150
   825.689    99.687     0.150
   827.189    99.899     0.150
   827.889   100.197     0.150
   832.990   101.166     0.150
   840.490   103.013     0.150
  1795.189   103.013     0.150
   846.189   104.672     0.150
  1105.189   104.672     0.150
  1113.889   111.351     0.150
  1118.189   112.896     0.150
  1124.189   116.175     0.150
  1142.189   124.884     0.150
  1142.389   124.971     0.150
  1146.990   127.232     0.150
  1157.189   133.379     0.150
  1157.189   133.620     0.150
  1161.189   135.108     0.150
  1161.189   135.658     0.150
  1172.490   143.705     0.150
  1180.689   145.304     0.150
  1181.189   145.419     0.150
  1181.689   145.634     0.150
  1184.590   146.527     0.150
  1185.090   146.657     0.150
  1185.090   146.658     0.150
  1184.990   146.700     0.150
  1185.189   146.733     0.150
  1186.490   147.003     0.150
    75.283     4.963     0.150
    77.283     5.154     0.150
    97.283     5.154     0.150
    82.283     5.459     0.150
    86.283     5.662     0.150
    95.982     6.482     0.150
    99.283     6.662     0.150
   104.783     7.150     0.150
   113.283     7.762     0.150
   114.283     7.684     0.150
   118.684     8.137     0.150
   120.482     8.298     0.150
   122.982     8.540     0.150
   159.982     8.540     0.150
   217.982     8.540     0.150
   123.283     8.599     0.150
   223.283     8.599     0.150
   275.283     8.599     0.150
   126.684     8.645     0.150
   132.684     9.129     0.150
   140.283     9.967     0.150
   187.283     9.967     0.150
   155.283    10.914     0.150
   157.283    10.989     0.150
   352.283    10.989     0.150
   166.283    11.727     0.150
   178.283    12.536     0.150
   179.184    12.747     0.150
   180.684    12.729     0.150
   325.482    12.729     0.150
   183.584    13.017     0.150
   187.283    13.457     0.150
   336.283    13.457     0.150
   187.783    13.300     0.150
   422.283    13.300     0.150
   191.684    13.701     0.150
   196.283    13.979     0.150
   199.383    14.144     0.150
   208.283    14.891     0.150
   209.283    14.885     0.150
   216.482    15.362     0.150
   500.982    15.362     0.150
   219.283    15.719     0.150
   284.283    16.309     0.150
   407.283    16.309     0.150
   516.283    16.309     0.150
   224.883    16.200     0.150
   225.184    15.993     0.150
   236.783    17.001     0.150
   253.783    18.530     0.150
   278.684    20.500     0.150
   506.684    20.500     0.150
   283.283    21.079     0.150
   287.383    21.313     0.150
   526.084    21.313     0.150
   290.283    21.659     0.150
   533.283    21.659     0.150
   291.283    21.786     0.150
   292.283    21.786     0.150
   530.283    21.786     0.150
   531.283    21.786     0.150
   292.584    21.824     0.150
   300.383    22.599     0.150
   301.084    22.599     0.150
   302.084    22.927     0.150
   336.283    26.349     0.150
   344.783    27.193     0.150
   854.783    27.193     0.150
   376.283    30.675     0.150
   378.084    30.718     0.150
   384.482    31.492     0.150
   391.883    32.358     0.150
   397.383    33.063     0.150
   397.883    33.063     0.150
   400.783    33.465     0.150
   411.084    34.674     0.150
   431.283    36.878     0.150
   431.283    36.774     0.150
   432.783    37.184     0.150
   443.383    38.538     0.150
   445.783    38.595     0.150
   448.482    38.948     0.150
   449.883    39.149     0.150
   453.783    39.609     0.150
   463.283    40.636     0.150
   464.482    40.948     0.150
   488.283    44.074     0.150
   500.283    45.682     0.150
   544.283    50.992     0.150
   574.084    55.169     0.150
   587.684    57.051     0.150
   617.283    61.523     0.150
   629.283    63.473     0.150
   122.482     8.377     0.150
   124.783     8.559     0.150
   127.783     8.701     0.150
   202.383    14.385     0.150
   203.584    14.347     0.150
   220.783    15.748     0.150
   249.283    17.850     0.150
   256.283    18.576     0.150
   264.783    19.238     0.150
   265.283    19.290     0.150
   264.283    19.388     0.150
   271.084    19.648     0.150
   269.283    19.848     0.150
   273.783    19.970     0.150
   273.283    20.018     0.150
   274.283    20.018     0.150
   274.482    20.026     0.150
   281.283    20.629     0.150
   286.283    21.206     0.150
   287.283    21.259     0.150
   288.283    21.289     0.150
   292.584    21.856     0.150
   309.084    23.368     0.150
   310.783    23.433     0.150
   315.684    23.862     0.150
   316.184    24.094     0.150
   316.283    24.221     0.150
   317.283    24.194     0.150
   319.283    24.475     0.150
   626.283    24.475     0.150
   762.283    24.475     0.150
   320.982    24.477     0.150
   319.283    24.580     0.150
   584.283    24.580     0.150
   320.283    24.553     0.150
   323.283    24.770     0.150
   324.184    24.993     0.150
   592.283    24.993     0.150
   328.383    25.422     0.150
   601.283    25.422     0.150
   330.283    25.627     0.150
   336.684    26.401     0.150
   372.283    26.401     0.150
   336.684    26.371     0.150
   338.283    26.643     0.150
   342.383    26.889     0.150
   383.283    26.889     0.150
   342.383    26.917     0.150
   383.283    26.917     0.150
   346.283    27.466     0.150
   345.584    27.529     0.150
   350.584    27.942     0.150
   351.482    27.957     0.150
   356.283    28.430     0.150
   357.383    28.645     0.150
   355.783    28.691     0.150
   359.283    28.881     0.150
   360.283    29.017     0.150
   363.283    29.373     0.150
   363.283    29.501     0.150
   365.184    29.534     0.150
   367.783    29.790     0.150
   550.283    29.790     0.150
   369.184    30.084     0.150
   371.684    30.123     0.150
   371.283    30.276     0.150
   435.283    30.276     0.150
   671.283    30.276     0.150
   375.982    30.729     0.150
   377.084    30.761     0.150
   380.684    31.417     0.150
   382.482    31.573     0.150
   382.783    31.557     0.150
   388.283    32.032     0.150
   389.084    32.204     0.150
   391.883    32.522     0.150
   469.283    32.522     0.150
   392.184    32.567     0.150
   393.982    32.822     0.150
   395.283    32.835     0.150
   394.482    32.872     0.150
   397.283    33.093     0.150
   398.084    33.300     0.150
   400.283    33.559     0.150
   404.184    33.955     0.150
   403.783    34.011     0.150
   406.184    34.317     0.150
   407.383    34.377     0.150
   409.084    34.437     0.150
   410.684    34.703     0.150
   413.982    35.104     0.150
   415.584    35.352     0.150
   415.584    35.362     0.150
   417.883    35.646     0.150
   421.283    35.831     0.150
   427.982    36.708     0.150
   433.283    37.402     0.150
   435.084    37.636     0.150
   436.584    37.682     0.150
   436.783    37.833     0.150
   437.883    37.868     0.150
   437.383    37.927     0.150
   438.982    38.109     0.150
   439.982    38.090     0.150
   439.684    38.171     0.150
   439.283    38.168     0.150
   440.482    38.229     0.150
   440.283    38.257     0.150
   524.283    38.257     0.150
   440.383    38.312     0.150
   441.283    38.326     0.150
   453.084    39.711     0.150
   480.283    43.053     0.150
   481.783    43.261     0.150
   483.883    43.497     0.150
   585.283    43.497     0.150
   489.883    44.201     0.150
   491.584    44.247     0.150
   494.283    44.513     0.150
   490.783    44.465     0.150
   498.084    45.113     0.150
   501.283    45.526     0.150
   503.283    45.857     0.150
   506.482    46.115     0.150
   509.584    46.733     0.150
   512.283    47.038     0.150
   605.283    47.038     0.150
   515.283    47.321     0.150
   518.283    48.007     0.150
   525.783    48.784     0.150
   536.084    50.124     0.150
   540.482    50.674     0.150
   547.283    51.532     0.150
   558.283    52.938     0.150
   576.783    55.667     0.150
   700.283    55.667     0.150
   600.283    58.930     0.150
   607.482    60.007     0.150
   608.684    60.097     0.150
   608.684    60.064     0.150
   612.783    60.704     0.150
   616.283    61.270     0.150
   617.482    61.337     0.150
   617.184    61.490     0.150
   659.283    61.490     0.150
   622.283    62.011     0.150
   623.783    62.454     0.150
   626.383    62.736     0.150
   627.684    62.912     0.150
   625.684    62.932     0.150
   627.283    62.854     0.150
   627.283    62.868     0.150
   631.684    63.554     0.150
   633.982    63.939     0.150
   639.283    64.717     0.150
   656.783    67.462     0.150
   658.982    67.954     0.150
   660.283    68.120     0.150
   670.283    69.731     0.150
   670.783    69.627     0.150
   671.783    69.905     0.150
   673.783    70.073     0.150
   675.783    70.501     0.150
   680.783    71.228     0.150
   691.684    73.091     0.150
   692.783    73.354     0.150
   693.783    73.643     0.150
   693.883    73.501     0.150
   699.584    74.535     0.150
   702.283    74.718     0.150
   701.684    74.658     0.150
   709.283    76.183     0.150
   709.283    76.259     0.150
   716.982    77.502     0.150
   725.883    79.061     0.150
   729.982    79.714     0.150
   728.783    79.807     0.150
   730.883    79.954     0.150
   735.684    80.876     0.150
   736.482    81.080     0.150
   740.084    81.520     0.150
   741.482    81.920     0.150
   741.684    82.024     0.150
   745.283    82.744     0.150
   745.383    82.837     0.150
   750.584    83.644     0.150
   752.283    84.276     0.150
   758.383    85.303     0.150
   765.482    86.711     0.150
   765.482    86.756     0.150
   765.283    87.056     0.150
   769.684    87.591     0.150
   769.084    87.634     0.150
   770.283    87.967     0.150
   771.383    87.966     0.150
   773.184    88.276     0.150
  1834.283    88.276     0.150
   774.283    88.608     0.150
   777.084    88.811     0.150
   779.684    89.463     0.150
   779.283    89.702     0.150
   779.982    89.797     0.150
   784.783    91.175     0.150
   786.383    91.374     0.150
   789.283    91.901     0.150
   791.482    92.347     0.150
   794.783    92.928     0.150
   794.184    93.105     0.150
   795.783    93.216     0.150
   796.383    93.499     0.150
   803.283    94.891     0.150
   803.283    94.908     0.150
   803.783    95.012     0.150
   805.383    95.555     0.150
   807.283    95.570     0.150
   808.684    96.092     0.150
   806.684    95.988     0.150
   808.283    96.090     0.150
   808.684    96.225     0.150
   808.283    96.295     0.150
   812.283    96.603     0.150
   812.084    96.878     0.150
   816.783    98.070     0.150
   819.883    98.437     0.150
  1056.283    98.437     0.150
  1808.283    98.437     0.150
   821.283    98.576     0.150
   819.283    98.598     0.150
  1061.283    98.598     0.150
   823.283    99.090     0.150
   824.883    99.340     0.150
   824.783    99.352     0.150
   827.482    99.962     0.150
   828.684   100.246     0.150
   829.283   100.931     0.150
   833.184   101.201     0.150
   837.283   102.080     0.150
   836.283   102.455     0.150
  1796.283   102.455     0.150
   840.783   103.049     0.150
  1119.283   113.039     0.150
  1123.283   116.100     0.150
  1126.283   116.647     0.150
  1141.883   125.046     0.150
  1147.283   126.859     0.150
  1147.283   127.307     0.150
  1156.883   133.305     0.150
  1159.283   134.699     0.150
  1159.283   135.033     0.150
  1161.883   135.333     0.150
  1161.283   135.582     0.150
  1163.283   137.068     0.150
  1180.584   145.273     0.150
  1180.982   145.388     0.150
  1181.584   145.603     0.150
  1184.584   146.490     0.150
  1185.084   146.620     0.150
  1185.184   146.621     0.150
  1184.982   146.663     0.150
  1185.184   146.696     0.150
  1186.283   146.967     0.150
END
gmt pstext -: -R $projection -F+f10p,Helvetica,red+a0.+jBL -K -O << END >> $psfile
   140.000    60.000 P phases in red
END
gmt pstext -: -R $projection -F+f10p,Helvetica,green+a0.+jBL -K -O << END >> $psfile
   100.000    60.000 S phases in green
END
gmt pstext -: -R $projection -F+f10p,Helvetica,black+a0.+jBL -K -O << END >> $psfile
    60.000    60.000 Readings used for cluster vectors in black
END
gmt pstext -: -R $projection -F+f10p,Helvetica,cyan+a0.+jBL -O << END >> $psfile
    20.000    60.000 Readings not used for cluster vectors in cyan
END
